        4.625000000000000    0.0003040174041128036    8.209263811473811e-06
        4.875000000000000    0.0003099933060285933    8.278252976116381e-06
        5.125000000000000    0.0003127841416675394    8.351284079544893e-06
        5.375000000000000    0.0003354719961125222    8.525512970677741e-06
        5.625000000000000    0.0003457458066580813    8.510980397474404e-06
        5.875000000000000    0.0003475993951450991    8.494779157550972e-06
        6.125000000000000    0.0003571838010986571    8.444868809991168e-06
        6.375000000000000    0.0003690164104673392    8.435761826959286e-06
        6.625000000000000    0.0003896188880464197    8.379501402781144e-06
        6.875000000000000    0.0004124588855351527    8.351584944846384e-06
        7.125000000000000    0.0004376843525179086    8.366650839641933e-06
        7.375000000000000    0.0004586802001082535    8.465979862924108e-06
        7.625000000000000    0.0004872813200863011    8.677072432280487e-06
        7.875000000000000    0.0005257981551032028    8.909320338283683e-06
        8.125000000000000    0.0005739867365127349    9.222088646613054e-06
        8.375000000000000    0.0006232553647731887    9.524337045776638e-06
        8.625000000000000    0.0007013162672490739    9.834004134767896e-06
        8.875000000000000    0.0007872788860798944    1.012830733142465e-05
        9.125000000000000    0.0008627657861975333    1.049842912542306e-05
        9.375000000000000    0.0009408804381481948    1.088811863251847e-05
        9.625000000000000     0.001011427228976863    1.124641990059664e-05
        9.875000000000000     0.001058885462213880    1.152615576407692e-05
        10.12500000000000     0.001041966684520677    1.151145542929031e-05
        10.37500000000000     0.001053095191387164    1.158955577938396e-05
        10.62500000000000    0.0009972175059987062    1.129615226943001e-05
        10.87500000000000    0.0009423321948930456    1.109161133226012e-05
        11.12500000000000    0.0008597258960706126    1.064871581361018e-05
        11.37500000000000    0.0008055021716387761    1.039099065457033e-05
        11.62500000000000    0.0007527564771168325    1.005444527667067e-05
        11.87500000000000    0.0007034835909576681    9.846719130372781e-06
        12.12500000000000    0.0006769664969102306    9.667482143319910e-06
        12.37500000000000    0.0006681832133876300    9.635839889328137e-06
        12.62500000000000    0.0006561778763848683    9.488096028513923e-06
        12.87500000000000    0.0006736694667489832    9.591592705125744e-06
        13.12500000000000    0.0006915257124884358    9.667891396169354e-06
        13.37500000000000    0.0007003627481832776    9.822556221777098e-06
        13.62500000000000    0.0007502873805771735    1.012368959147633e-05
        13.87500000000000    0.0007788391630989484    1.031556215911388e-05
        14.12500000000000    0.0008166418238810801    1.058415695199253e-05
        14.37500000000000    0.0008815377579482539    1.083674018897154e-05
        14.62500000000000    0.0009363901234881304    1.102370377455957e-05
        14.87500000000000    0.0009843621846188334    1.129537100898348e-05
        15.12500000000000     0.001049910067009949    1.154161814487171e-05
        15.37500000000000     0.001067855010367823    1.163290743529512e-05
        15.62500000000000     0.001085942526545315    1.166386347703030e-05
        15.87500000000000     0.001129143201506297    1.177717047218378e-05
        16.12500000000000     0.001070012362540071    1.150735736257047e-05
        16.37500000000000     0.001028343787119906    1.131237781558225e-05
        16.62500000000000    0.0009454568184610590    1.086585459785809e-05
        16.87500000000000    0.0008559763575189567    1.051445715498035e-05
        17.12500000000000    0.0007846679459492386    1.016569369315121e-05
        17.37500000000000    0.0007024988474820024    9.784459071337949e-06
        17.62500000000000    0.0006262421829103891    9.368743778794242e-06
        17.87500000000000    0.0005943780031247084    9.115790290425633e-06
        18.12500000000000    0.0005225467019897941    8.682159378482987e-06
        18.37500000000000    0.0004889461447658633    8.362513185763060e-06
        18.62500000000000    0.0004507328420703113    8.147328486395491e-06
        18.87500000000000    0.0004456691653522967    8.044402027257960e-06
        19.12500000000000    0.0004010968728024253    7.712674921717095e-06
        19.37500000000000    0.0003767611165750730    7.552383578342482e-06
        19.62500000000000    0.0003657795213023295    7.367893196473863e-06
        19.87500000000000    0.0003578280519498044    7.359871310832318e-06
        20.12500000000000    0.0003306479395905259    7.160930858119338e-06
        20.37500000000000    0.0003260414611894200    7.035197523398539e-06
        20.62500000000000    0.0003119276569273780    6.920614795081296e-06
        20.87500000000000    0.0003131856756912846    6.878575839690055e-06
        21.12500000000000    0.0002970980093980330    6.758704611434557e-06
        21.37500000000000    0.0003017535135136367    6.866391777072028e-06
        21.62500000000000    0.0002850411873737519    6.721759459337035e-06
        21.87500000000000    0.0002652764938011072    6.570960991651956e-06
        22.12500000000000    0.0002539896514288730    6.397355960314717e-06
        22.37500000000000    0.0002483580365489139    6.434609695029423e-06
        22.62500000000000    0.0002436084091124454    6.325561948300488e-06
        22.87500000000000    0.0002188986748133341    6.190499964300617e-06
        23.12500000000000    0.0002075690794286397    6.126682239423714e-06
        23.37500000000000    0.0001995952000455505    6.001309077150775e-06
        23.62500000000000    0.0001877050156551458    5.906971039963253e-06
        23.87500000000000    0.0001827696771074567    5.833654846039241e-06
        24.12500000000000    0.0001709200814330182    5.720549294716121e-06
        24.37500000000000    0.0001593567787750835    5.667568884788076e-06
        24.62500000000000    0.0001530859433179017    5.573892234692028e-06
        24.87500000000000    0.0001500390998794677    5.489389241556724e-06
        25.12500000000000    0.0001416956533974504    5.380225947751119e-06
        25.37500000000000    0.0001336861030956845    5.347086415363492e-06
        25.62500000000000    0.0001329732554034326    5.161749954560409e-06
        25.87500000000000    0.0001358872130936752    5.230586152714866e-06
        26.12500000000000    0.0001314252707770374    5.213560929938165e-06
        26.37500000000000    0.0001229971448061012    5.269472454854370e-06
        26.62500000000000    0.0001137026915894300    5.074219557993263e-06
        26.87500000000000    0.0001221743917944680    5.091011157524228e-06
        27.12500000000000    0.0001128291448472746    4.937433170131660e-06
        27.37500000000000    0.0001148668583339288    4.904943396422195e-06
        27.62500000000000    0.0001143768654622764    4.927404756921065e-06
        27.87500000000000    0.0001041202826997327    4.940675645024799e-06
        28.12500000000000    9.626123792119600e-05    4.872094069612483e-06
        28.37500000000000    9.288454664707215e-05    4.767348400521268e-06
        28.62500000000000    9.641368673622622e-05    4.658777279620075e-06
        28.87500000000000    9.706149173346940e-05    4.666120288504939e-06
        29.12500000000000    0.0001014135361277028    4.566270566100456e-06
        29.37500000000000    9.468460442637117e-05    4.537951034931339e-06
        29.62500000000000    9.399124270679809e-05    4.414478768681078e-06
        29.87500000000000    9.401435343032412e-05    4.398077207693199e-06
        30.12500000000000    8.205859632872210e-05    4.251732315728817e-06
        30.37500000000000    7.976648152813393e-05    4.166190976728048e-06
        30.62500000000000    8.166897926890828e-05    4.053153780108513e-06
        30.87500000000000    8.907247457607462e-05    3.918282623766524e-06
        31.12500000000000    9.310576659605493e-05    3.907299641108379e-06
        31.37500000000000    9.543619260636159e-05    3.837123300047233e-06
        31.62500000000000    9.009943436872792e-05    3.728270993722537e-06
        31.87500000000000    8.793592795406904e-05    3.787738684034560e-06
        32.12500000000000    9.064863685711594e-05    3.749762047118569e-06
        32.37500000000000    9.179993643514824e-05    3.941566656135710e-06
        32.62500000000000    7.703057987489588e-05    3.772458332873558e-06
        32.87500000000000    7.931918954484033e-05    3.790773943387955e-06
        33.12500000000000    7.332399326963955e-05    3.728825724066903e-06
        33.37500000000000    6.771209899640674e-05    3.605118546447456e-06
        33.62500000000000    6.621138116179934e-05    3.555867803479477e-06
        33.87500000000000    6.593002185521634e-05    3.312680960350827e-06
        34.12500000000000    7.405745795225499e-05    3.357343571707338e-06
        34.37500000000000    6.753114434074750e-05    3.169922335008040e-06
        34.62500000000000    6.441541568988358e-05    3.121635642307716e-06
        34.87500000000000    7.093566750415474e-05    3.080364710862965e-06
        35.12500000000000    6.788842889518975e-05    2.977620772938516e-06
        35.37500000000000    6.917788929712801e-05    2.925756812902881e-06
        35.62500000000000    6.775672912278350e-05    2.859494036434573e-06
        35.87500000000000    6.817051298419327e-05    2.841598296902134e-06
        36.12500000000000    6.427438470138335e-05    2.819168859167858e-06
        36.37500000000000    6.362421559182692e-05    2.708220318693307e-06
        36.62500000000000    6.379311339813622e-05    2.680799973373882e-06
        36.87500000000000    5.708221032246790e-05    2.640872044582599e-06
        37.12500000000000    5.913682044753338e-05    2.623252335353712e-06
        37.37500000000000    5.409904858965735e-05    2.631166021957964e-06
        37.62500000000000    5.399205279138720e-05    2.605272733445072e-06
        37.87500000000000    5.538552271841186e-05    2.527039116604471e-06
        38.12500000000000    5.106961784289230e-05    2.433029979381044e-06
        38.37500000000000    5.558625999442466e-05    2.323369425779453e-06
        38.62500000000000    5.424021966741608e-05    2.225386298067400e-06
        38.87500000000000    5.255102048625821e-05    2.156482019187679e-06
        39.12500000000000    5.193238508095764e-05    2.116665710235407e-06
        39.37500000000000    5.238591238286067e-05    2.047267355513959e-06
        39.62500000000000    5.036994225955003e-05    1.985488137282090e-06
        39.87500000000000    4.767325910837441e-05    1.939902741197885e-06
