        4.625000000000000    0.0001295827013012609    5.588526049583337e-06
        4.875000000000000    0.0001307026463898886    5.734249367561474e-06
        5.125000000000000    0.0001450574156444812    5.978659934477520e-06
        5.375000000000000    0.0001566215496280465    6.009308256891713e-06
        5.625000000000000    0.0001567346460432191    6.082746640468958e-06
        5.875000000000000    0.0001660380100295077    6.043319224134835e-06
        6.125000000000000    0.0001611706067124352    6.038020210445897e-06
        6.375000000000000    0.0001794585307297323    6.087179449973099e-06
        6.625000000000000    0.0002177491212225658    6.290431264143598e-06
        6.875000000000000    0.0002531145243833396    6.489729688192109e-06
        7.125000000000000    0.0003185325078988236    6.881850706048387e-06
        7.375000000000000    0.0004232156474330081    7.587280475641651e-06
        7.625000000000000    0.0005449382175598034    8.446340919625382e-06
        7.875000000000000    0.0007056665495226641    9.333074754684012e-06
        8.125000000000000    0.0009517443890514476    1.061219998003334e-05
        8.375000000000000     0.001294255294215753    1.217249971016133e-05
        8.625000000000000     0.001777415415113252    1.404306448774876e-05
        8.875000000000000     0.002389274711121752    1.611196949145578e-05
        9.125000000000000     0.003107439344323689    1.824198532026839e-05
        9.375000000000000     0.003664422508736525    1.977914519758960e-05
        9.625000000000000     0.003684515402703480    1.988182291703451e-05
        9.875000000000000     0.003132407832421275    1.841580296431205e-05
        10.12500000000000     0.002242862306199139    1.571989288936625e-05
        10.37500000000000     0.001406138549533421    1.277408719074753e-05
        10.62500000000000    0.0008699967023604606    1.034890025461718e-05
        10.87500000000000    0.0005831108249682696    8.785887905447207e-06
        11.12500000000000    0.0004395222375839912    7.894995022589916e-06
        11.37500000000000    0.0003695552622437198    7.413980196525668e-06
        11.62500000000000    0.0003304404793702839    7.066573839064054e-06
        11.87500000000000    0.0003414530807130526    7.238030544079797e-06
        12.12500000000000    0.0003654721999483454    7.371898016725862e-06
        12.37500000000000    0.0003737727219742764    7.403568465912814e-06
        12.62500000000000    0.0004072670661138745    7.618166234216829e-06
        12.87500000000000    0.0004947124081715349    8.202411049604311e-06
        13.12500000000000    0.0005758088843055389    8.678511757459637e-06
        13.37500000000000    0.0007197778421938815    9.568675101508932e-06
        13.62500000000000    0.0008758397769893294    1.043454862045980e-05
        13.87500000000000     0.001084856997732876    1.144543401595880e-05
        14.12500000000000     0.001385360999646249    1.274050060041708e-05
        14.37500000000000     0.001736602991106778    1.411997869335733e-05
        14.62500000000000     0.002178710981945759    1.564601929548751e-05
        14.87500000000000     0.002702480737962639    1.729547005843098e-05
        15.12500000000000     0.003178042010324180    1.860004838025309e-05
        15.37500000000000     0.003507387554037572    1.952486646182854e-05
        15.62500000000000     0.003601217487982720    1.978457981367370e-05
        15.87500000000000     0.003283100377634626    1.890697848462168e-05
        16.12500000000000     0.002665751496319654    1.710485836021962e-05
        16.37500000000000     0.001889129483274497    1.451962979179948e-05
        16.62500000000000     0.001234926453820881    1.194415149810594e-05
        16.87500000000000    0.0008027356824028934    9.988356074146071e-06
        17.12500000000000    0.0006004929022684318    8.929792148610865e-06
        17.37500000000000    0.0004577549489286216    8.050787571128718e-06
        17.62500000000000    0.0003674182960270350    7.531546668565954e-06
        17.87500000000000    0.0003125717134264882    7.099755282206222e-06
        18.12500000000000    0.0002818063637350417    6.835978055194948e-06
        18.37500000000000    0.0002670843360929140    6.592179413774118e-06
        18.62500000000000    0.0002689792150326541    6.478840895963554e-06
        18.87500000000000    0.0002439813440170393    6.339916581305411e-06
        19.12500000000000    0.0002397510668282548    6.265607540145720e-06
        19.37500000000000    0.0002370539915781279    6.184063365127117e-06
        19.62500000000000    0.0002290529176201913    6.135348971959911e-06
        19.87500000000000    0.0002374852362406866    6.041540099311903e-06
        20.12500000000000    0.0002410519270765127    6.094088021523811e-06
        20.37500000000000    0.0002228144211963844    6.027234636284552e-06
        20.62500000000000    0.0002295050918737253    5.980005586636410e-06
        20.87500000000000    0.0002282608414231067    5.996293585311886e-06
        21.12500000000000    0.0002285579813444989    6.078401335658200e-06
        21.37500000000000    0.0002255317504457509    6.036939430625560e-06
        21.62500000000000    0.0002141169466444846    5.959722725381591e-06
        21.87500000000000    0.0001883637727290637    5.853316721356816e-06
        22.12500000000000    0.0001817870048687759    5.724910156005126e-06
        22.37500000000000    0.0001741911650627763    5.556980442791217e-06
        22.62500000000000    0.0001504345015964307    5.312873563617748e-06
        22.87500000000000    0.0001472919468846425    5.188995164480903e-06
        23.12500000000000    0.0001372380155163276    5.263049577629550e-06
        23.37500000000000    0.0001157162740711318    5.151631913414571e-06
        23.62500000000000    0.0001220008198573787    5.193637335354682e-06
        23.87500000000000    0.0001082454762076390    5.022989325680155e-06
        24.12500000000000    0.0001089132966194004    4.972597948552753e-06
        24.37500000000000    0.0001017183813772972    4.856201131304531e-06
        24.62500000000000    9.312613605993013e-05    4.891671097981768e-06
        24.87500000000000    9.755623912068244e-05    4.912850386830184e-06
        25.12500000000000    9.776904466371994e-05    4.845631128083089e-06
        25.37500000000000    9.912952531685780e-05    4.734516055425475e-06
        25.62500000000000    8.783541166754736e-05    4.693602875013790e-06
        25.87500000000000    0.0001003410612724439    4.786548925761730e-06
        26.12500000000000    9.575646439383008e-05    4.725181408072037e-06
        26.37500000000000    8.133800871064675e-05    4.588443293276368e-06
        26.62500000000000    8.470816838501224e-05    4.617857959993880e-06
        26.87500000000000    7.884341174382875e-05    4.500640122000689e-06
        27.12500000000000    7.064731769541437e-05    4.277160953548376e-06
        27.37500000000000    6.963866395624903e-05    4.301414292593558e-06
        27.62500000000000    7.023255681166980e-05    4.264225711174879e-06
        27.87500000000000    6.607641818702366e-05    4.385080295069247e-06
        28.12500000000000    5.919679553580052e-05    4.308540998144161e-06
        28.37500000000000    4.680491954564764e-05    4.280938847615669e-06
        28.62500000000000    5.378365206303864e-05    4.262786752127417e-06
        28.87500000000000    6.180039185211644e-05    4.174352016024676e-06
        29.12500000000000    6.067219549783310e-05    4.155739802149372e-06
        29.37500000000000    5.840998515092013e-05    4.058423728893568e-06
        29.62500000000000    5.414363363147966e-05    3.862347063357958e-06
        29.87500000000000    5.519171368593049e-05    3.869018843918531e-06
        30.12500000000000    5.274952544190707e-05    3.809143442718042e-06
        30.37500000000000    5.518320846912124e-05    3.823811130801163e-06
        30.62500000000000    6.325286841600096e-05    3.695581296429576e-06
        30.87500000000000    6.443794221097380e-05    3.557036312215509e-06
        31.12500000000000    7.392466455197953e-05    3.481401887101559e-06
        31.37500000000000    6.973755212623826e-05    3.419649827073643e-06
        31.62500000000000    7.007642848239420e-05    3.421589130746714e-06
        31.87500000000000    6.387759700747408e-05    3.301955258441223e-06
        32.12500000000000    5.515483427565675e-05    3.340667224373538e-06
        32.37500000000000    4.703341882788309e-05    3.294108963050349e-06
        32.62500000000000    4.643104638689451e-05    3.393035576290793e-06
        32.87500000000000    4.281626865616153e-05    3.395488614850717e-06
        33.12500000000000    4.104618804950439e-05    3.390253186463090e-06
        33.37500000000000    3.702979956247230e-05    3.260175956987151e-06
        33.62500000000000    3.935864603938988e-05    3.183816398301398e-06
        33.87500000000000    3.750468715162377e-05    2.983659360909131e-06
        34.12500000000000    4.043227050373599e-05    2.941368898525682e-06
        34.37500000000000    4.273939170026032e-05    2.758413462095121e-06
        34.62500000000000    3.628176769823890e-05    2.658686929438891e-06
        34.87500000000000    4.122873604546341e-05    2.522148422489488e-06
        35.12500000000000    4.201867779114650e-05    2.491906162543376e-06
        35.37500000000000    4.260450730176271e-05    2.487336157809414e-06
        35.62500000000000    4.021382234498880e-05    2.489382297140579e-06
        35.87500000000000    4.060970940030905e-05    2.398227932810237e-06
        36.12500000000000    3.700242456339584e-05    2.312656400832761e-06
        36.37500000000000    4.059384864937816e-05    2.362711456356065e-06
        36.62500000000000    3.564920171100013e-05    2.244762590087961e-06
        36.87500000000000    3.244236469163386e-05    2.244802243514705e-06
        37.12500000000000    3.095621872126833e-05    2.243679776966103e-06
        37.37500000000000    3.251513817395979e-05    2.333105579955544e-06
        37.62500000000000    3.032777284863664e-05    2.331324637838771e-06
        37.87500000000000    3.150086617643860e-05    2.350446675319734e-06
        38.12500000000000    2.658174147765157e-05    2.166097576758194e-06
        38.37500000000000    3.348985572451077e-05    2.011969099455078e-06
        38.62500000000000    3.370099759706664e-05    1.914960400996701e-06
        38.87500000000000    3.489473029426039e-05    1.837871784942080e-06
        39.12500000000000    3.465906958394466e-05    1.824952525401565e-06
        39.37500000000000    3.397996081928537e-05    1.802631745943115e-06
        39.62500000000000    2.955636594057825e-05    1.727366337011564e-06
        39.87500000000000    2.997943521661344e-05    1.646251445625557e-06
