        4.875000000000000    7.959531785151208e-05    4.064054181853138e-06
        5.125000000000000    8.485542881512501e-05    4.148585126975393e-06
        5.375000000000000    9.746105538449241e-05    4.326549081699546e-06
        5.625000000000000    0.0001190008853335383    4.440559319687513e-06
        5.875000000000000    0.0001222597740789623    4.495506009768595e-06
        6.125000000000000    0.0001222617755218518    4.520035810135991e-06
        6.375000000000000    0.0001322903854125037    4.568298462552563e-06
        6.625000000000000    0.0001813181326973206    4.802191117850884e-06
        6.875000000000000    0.0002400601693130351    5.193499257853625e-06
        7.125000000000000    0.0003379809706933828    5.806282656778535e-06
        7.375000000000000    0.0004629706175674708    6.541270670525880e-06
        7.625000000000000    0.0006235420487280951    7.427283895212486e-06
        7.875000000000000    0.0008783436291135160    8.615924104408631e-06
        8.125000000000000     0.001224783012516171    1.001307549802453e-05
        8.375000000000000     0.001759874435798954    1.181696970648502e-05
        8.625000000000000     0.002499471970836708    1.392398563128075e-05
        8.875000000000000     0.003541039822742998    1.645418045118696e-05
        9.125000000000000     0.004693722847078845    1.886654089716287e-05
        9.375000000000000     0.005512234354472136    2.043832891506873e-05
        9.625000000000000     0.005371364150879448    2.019799543018375e-05
        9.875000000000000     0.004128863247764144    1.781111992704751e-05
        10.12500000000000     0.002499185616448679    1.400663971129952e-05
        10.37500000000000     0.001229719525370226    1.012963001114644e-05
        10.62500000000000    0.0005716970788482562    7.314300999751987e-06
        10.87500000000000    0.0003071443922380327    5.854987035470165e-06
        11.12500000000000    0.0002138568869823896    5.134505465507781e-06
        11.37500000000000    0.0001741382392101023    4.936583802687627e-06
        11.62500000000000    0.0001662715701885909    4.861363214843361e-06
        11.87500000000000    0.0001843134412316420    4.951283683972361e-06
        12.12500000000000    0.0002304235330433929    5.281279942832646e-06
        12.37500000000000    0.0002725532638031303    5.605873420459546e-06
        12.62500000000000    0.0003523957007776751    6.061835461606027e-06
        12.87500000000000    0.0004397158183094231    6.563800594154384e-06
        13.12500000000000    0.0005371572166857364    7.158066161301068e-06
        13.37500000000000    0.0007076892054276046    7.987537970859520e-06
        13.62500000000000    0.0009212851576634658    8.968768157697799e-06
        13.87500000000000     0.001219154002025780    1.017425145887109e-05
        14.12500000000000     0.001622176123184686    1.157783000061080e-05
        14.37500000000000     0.002106351253183208    1.302521873540304e-05
        14.62500000000000     0.002792351394399733    1.485553387817353e-05
        14.87500000000000     0.003615686611723416    1.676264956005209e-05
        15.12500000000000     0.004396931358015307    1.841257547713649e-05
        15.37500000000000     0.005104636847555492    1.975683826843314e-05
        15.62500000000000     0.005311850648065814    2.015739721543674e-05
        15.87500000000000     0.004846735902754494    1.926982141675100e-05
        16.12500000000000     0.003705015734901955    1.689978909704054e-05
        16.37500000000000     0.002290926322199643    1.342072181888044e-05
        16.62500000000000     0.001223524391275637    1.006873974546165e-05
        16.87500000000000    0.0006870993022155375    7.839121668140856e-06
        17.12500000000000    0.0004453618722079009    6.663818800440543e-06
        17.37500000000000    0.0003068509359563250    5.981690480649502e-06
        17.62500000000000    0.0002329724662136071    5.443200510818547e-06
        17.87500000000000    0.0002021319671658912    5.174204292211608e-06
        18.12500000000000    0.0001783165852501783    5.049829180990165e-06
        18.37500000000000    0.0001790169116791197    4.891244720342731e-06
        18.62500000000000    0.0001805758453794828    4.859823735210598e-06
        18.87500000000000    0.0001821250549644097    4.914005219212645e-06
        19.12500000000000    0.0001752109552062720    4.810734029778474e-06
        19.37500000000000    0.0001742448022501019    4.716835735313443e-06
        19.62500000000000    0.0001746649678642487    4.593806602003020e-06
        19.87500000000000    0.0001739388607618542    4.610059123253681e-06
        20.12500000000000    0.0001699465520475798    4.635874213135108e-06
        20.37500000000000    0.0001643663803174279    4.523065310190696e-06
        20.62500000000000    0.0001720096925893933    4.579550760510023e-06
        20.87500000000000    0.0001696480537396062    4.586812717814187e-06
        21.12500000000000    0.0001739835646497826    4.591388283007364e-06
        21.37500000000000    0.0001757938876076610    4.603006004310632e-06
        21.62500000000000    0.0001564637106058318    4.474357281574131e-06
        21.87500000000000    0.0001497805721869240    4.397832037308978e-06
        22.12500000000000    0.0001181592051417015    4.198188917609086e-06
        22.37500000000000    0.0001127724872405829    4.058758360748079e-06
        22.62500000000000    0.0001078781932373755    3.955517577323433e-06
        22.87500000000000    0.0001049467698330618    3.925119609375163e-06
        23.12500000000000    9.312797587723124e-05    3.951902217802507e-06
        23.37500000000000    8.768824477234424e-05    3.899861592652625e-06
        23.62500000000000    8.107087489105569e-05    3.928551079505562e-06
        23.87500000000000    7.491505753810699e-05    3.810463967305432e-06
        24.12500000000000    9.751066647145228e-05    3.831906033662418e-06
        24.37500000000000    9.651130457680723e-05    3.870824296735138e-06
        24.62500000000000    9.598200266392468e-05    3.909527003429022e-06
        24.87500000000000    9.857618530384067e-05    3.965093896462962e-06
        25.12500000000000    9.968685517767190e-05    3.925248937660370e-06
        25.37500000000000    9.916795165573297e-05    3.823457902842921e-06
        25.62500000000000    9.231161316259545e-05    3.762353004006501e-06
        25.87500000000000    8.430310855645949e-05    3.650154710823920e-06
        26.12500000000000    7.887250404230301e-05    3.604122144254205e-06
        26.37500000000000    6.917902614282755e-05    3.538062685169547e-06
        26.62500000000000    6.492546171053812e-05    3.423773075368450e-06
        26.87500000000000    5.700727529281921e-05    3.357818158924239e-06
        27.12500000000000    6.797583127961188e-05    3.365521786437387e-06
        27.37500000000000    6.619416654885420e-05    3.299586327115532e-06
        27.62500000000000    5.755600216292024e-05    3.234229800467044e-06
        27.87500000000000    5.428349369802455e-05    3.213694746212194e-06
        28.12500000000000    5.068906985568432e-05    3.173267446463153e-06
        28.37500000000000    4.047351461889339e-05    3.168477922560591e-06
        28.62500000000000    3.707466809155936e-05    3.069439667003742e-06
        28.87500000000000    4.197009179815676e-05    3.038590140765705e-06
        29.12500000000000    4.755833349664964e-05    2.976878152099495e-06
        29.37500000000000    5.523728099587960e-05    3.017040138873119e-06
        29.62500000000000    5.656749913522769e-05    2.960467416243022e-06
        29.87500000000000    6.140322111169817e-05    2.986769746098225e-06
        30.12500000000000    5.451915062317750e-05    2.896347290328099e-06
        30.37500000000000    6.061890923211226e-05    2.919559190723008e-06
        30.62500000000000    6.571414276242577e-05    2.859698867196530e-06
        30.87500000000000    7.302470939713717e-05    2.720876540829379e-06
        31.12500000000000    7.656243876899374e-05    2.688716960175512e-06
        31.37500000000000    7.707304269586293e-05    2.628814710171393e-06
        31.62500000000000    7.212672436234443e-05    2.587084328232209e-06
        31.87500000000000    6.192744712662696e-05    2.533987949130923e-06
        32.12500000000000    5.358862709937861e-05    2.466527589980453e-06
        32.37500000000000    4.565803334244319e-05    2.468867777811824e-06
        32.62500000000000    3.732082031908980e-05    2.556177173380460e-06
        32.87500000000000    3.931754337006034e-05    2.545224474902353e-06
        33.12500000000000    3.550110951123308e-05    2.516004677646279e-06
        33.37500000000000    3.419756534820231e-05    2.485927328957390e-06
        33.62500000000000    3.189940776348410e-05    2.339416757022147e-06
        33.87500000000000    3.242099295383683e-05    2.227112151504417e-06
        34.12500000000000    3.010394890047175e-05    2.038350771394019e-06
        34.37500000000000    3.220239943739610e-05    1.956568804074479e-06
        34.62500000000000    3.126415462590294e-05    1.909929795134870e-06
        34.87500000000000    3.635702777341181e-05    1.879763988570000e-06
        35.12500000000000    3.179396418091138e-05    1.808688258572296e-06
        35.37500000000000    3.542565877889451e-05    1.783749448032665e-06
        35.62500000000000    3.726452417041337e-05    1.760011492323057e-06
        35.87500000000000    3.412742668637688e-05    1.706074916450471e-06
